# k [h/Mpc]    P(k) [(Mpc/h)^3]
1.00000000e-04 2.82675864e+02
1.00996270e-04 2.85391788e+02
1.02002466e-04 2.88133782e+02
1.03018686e-04 2.90902094e+02
1.04045030e-04 2.93696977e+02
1.05081600e-04 2.96518685e+02
1.06128497e-04 2.99367475e+02
1.07185823e-04 3.02243605e+02
1.08253683e-04 3.05147338e+02
1.09332183e-04 3.08078938e+02
1.10421426e-04 3.11038670e+02
1.11521522e-04 3.14026803e+02
1.12632578e-04 3.17043610e+02
1.13754703e-04 3.20089364e+02
1.14888007e-04 3.23164341e+02
1.16032602e-04 3.26268822e+02
1.17188600e-04 3.29403088e+02
1.18356115e-04 3.32567423e+02
1.19535261e-04 3.35762115e+02
1.20726156e-04 3.38987455e+02
1.21928914e-04 3.42243734e+02
1.23143656e-04 3.45531249e+02
1.24370499e-04 3.48850297e+02
1.25609565e-04 3.52201181e+02
1.26860976e-04 3.55584204e+02
1.28124854e-04 3.58999672e+02
1.29401324e-04 3.62447897e+02
1.30690510e-04 3.65929190e+02
1.31992541e-04 3.69443868e+02
1.33307543e-04 3.72992249e+02
1.34635646e-04 3.76574656e+02
1.35976981e-04 3.80191411e+02
1.37331679e-04 3.83842843e+02
1.38699874e-04 3.87529283e+02
1.40081699e-04 3.91251063e+02
1.41477291e-04 3.95008520e+02
1.42886787e-04 3.98801996e+02
1.44310326e-04 4.02631832e+02
1.45748047e-04 4.06498374e+02
1.47200091e-04 4.10401974e+02
1.48666601e-04 4.14342983e+02
1.50147722e-04 4.18321757e+02
1.51643599e-04 4.22338657e+02
1.53154379e-04 4.26394046e+02
1.54680211e-04 4.30488289e+02
1.56221243e-04 4.34621757e+02
1.57777629e-04 4.38794823e+02
1.59349520e-04 4.43007864e+02
1.60937072e-04 4.47261260e+02
1.62540440e-04 4.51555395e+02
1.64159782e-04 4.55890657e+02
1.65795257e-04 4.60267437e+02
1.67447025e-04 4.64686130e+02
1.69115250e-04 4.69147135e+02
1.70800095e-04 4.73650853e+02
1.72501725e-04 4.78197689e+02
1.74220309e-04 4.82788052e+02
1.75956013e-04 4.87422355e+02
1.77709011e-04 4.92101015e+02
1.79479473e-04 4.96824453e+02
1.81267573e-04 5.01593092e+02
1.83073488e-04 5.06407361e+02
1.84897394e-04 5.11267692e+02
1.86739472e-04 5.16174522e+02
1.88599901e-04 5.21128292e+02
1.90478866e-04 5.26129446e+02
1.92376550e-04 5.31178432e+02
1.94293140e-04 5.36275704e+02
1.96228825e-04 5.41421718e+02
1.98183794e-04 5.46616937e+02
2.00158240e-04 5.51861825e+02
2.02152357e-04 5.57156853e+02
2.04166340e-04 5.62502495e+02
2.06200388e-04 5.67899229e+02
2.08254701e-04 5.73347540e+02
2.10329481e-04 5.78847915e+02
2.12424931e-04 5.84400846e+02
2.14541257e-04 5.90006828e+02
2.16678667e-04 5.95666361e+02
2.18837372e-04 6.01379949e+02
2.21017584e-04 6.07148102e+02
2.23219516e-04 6.12971332e+02
2.25443385e-04 6.18850158e+02
2.27689410e-04 6.24785103e+02
2.29957812e-04 6.30776694e+02
2.32248813e-04 6.36825464e+02
2.34562639e-04 6.42931951e+02
2.36899516e-04 6.49096697e+02
2.39259675e-04 6.55320249e+02
2.41643348e-04 6.61603159e+02
2.44050769e-04 6.67945985e+02
2.46482174e-04 6.74349290e+02
2.48937802e-04 6.80813640e+02
2.51417895e-04 6.87339610e+02
2.53922696e-04 6.93927776e+02
2.56452452e-04 7.00578722e+02
2.59007412e-04 7.07293037e+02
2.61587825e-04 7.14071314e+02
2.64193947e-04 7.20914154e+02
2.66826032e-04 7.27822160e+02
2.69484340e-04 7.34795942e+02
2.72169132e-04 7.41836112e+02
2.74880672e-04 7.48943288e+02
2.77619226e-04 7.56118095e+02
2.80385063e-04 7.63361161e+02
2.83178456e-04 7.70673121e+02
2.85999679e-04 7.78054615e+02
2.88849008e-04 7.85506291e+02
2.91726724e-04 7.93028800e+02
2.94633111e-04 8.00622799e+02
2.97568452e-04 8.08288953e+02
3.00533038e-04 8.16027931e+02
3.03527159e-04 8.23840409e+02
3.06551110e-04 8.31727067e+02
3.09605187e-04 8.39688595e+02
3.12689691e-04 8.47725684e+02
3.15804925e-04 8.55839036e+02
3.18951195e-04 8.64029357e+02
3.22128811e-04 8.72297358e+02
3.25338084e-04 8.80643758e+02
3.28579330e-04 8.89069282e+02
3.31852868e-04 8.97574662e+02
3.35159019e-04 9.06160635e+02
3.38498108e-04 9.14827945e+02
3.41870464e-04 9.23577336e+02
3.45276417e-04 9.32409560e+02
3.48716303e-04 9.41325377e+02
3.52190459e-04 9.50325550e+02
3.55699228e-04 9.59410851e+02
3.59242953e-04 9.68582059e+02
3.62821983e-04 9.77839958e+02
3.66436670e-04 9.87185338e+02
3.70087370e-04 9.96619000e+02
3.73774440e-04 1.00614175e+03
3.77498243e-04 1.01575439e+03
3.81259145e-04 1.02545775e+03
3.85057516e-04 1.03525265e+03
3.88893729e-04 1.04513993e+03
3.92768161e-04 1.05512042e+03
3.96681193e-04 1.06519497e+03
4.00633210e-04 1.07536444e+03
4.04624599e-04 1.08562969e+03
4.08655753e-04 1.09599158e+03
4.12727068e-04 1.10645099e+03
4.16838945e-04 1.11700881e+03
4.20991787e-04 1.12766593e+03
4.25186002e-04 1.13842324e+03
4.29422003e-04 1.14928164e+03
4.33700207e-04 1.16024204e+03
4.38021032e-04 1.17130534e+03
4.42384905e-04 1.18247247e+03
4.46792254e-04 1.19374436e+03
4.51243512e-04 1.20512194e+03
4.55739116e-04 1.21660614e+03
4.60279509e-04 1.22819793e+03
4.64865136e-04 1.23989825e+03
4.69496449e-04 1.25170807e+03
4.74173902e-04 1.26362837e+03
4.78897955e-04 1.27566012e+03
4.83669072e-04 1.28780432e+03
4.88487723e-04 1.30006195e+03
4.93354380e-04 1.31243402e+03
4.98269522e-04 1.32492155e+03
5.03233633e-04 1.33752555e+03
5.08247199e-04 1.35024706e+03
5.13310715e-04 1.36308710e+03
5.18424676e-04 1.37604672e+03
5.23589586e-04 1.38912698e+03
5.28805953e-04 1.40232893e+03
5.34074289e-04 1.41565365e+03
5.39395112e-04 1.42910220e+03
5.44768944e-04 1.44267566e+03
5.50196314e-04 1.45637510e+03
5.55677756e-04 1.47020162e+03
5.61213808e-04 1.48415631e+03
5.66805013e-04 1.49824028e+03
5.72451923e-04 1.51245464e+03
5.78155090e-04 1.52680051e+03
5.83915077e-04 1.54127902e+03
5.89732448e-04 1.55589132e+03
5.95607777e-04 1.57063855e+03
6.01541639e-04 1.58552186e+03
6.07534619e-04 1.60054241e+03
6.13587305e-04 1.61570139e+03
6.19700292e-04 1.63099996e+03
6.25874181e-04 1.64643932e+03
6.32109579e-04 1.66202067e+03
6.38407098e-04 1.67774521e+03
6.44767357e-04 1.69361415e+03
6.51190982e-04 1.70962873e+03
6.57678603e-04 1.72579016e+03
6.64230859e-04 1.74209970e+03
6.70848393e-04 1.75855859e+03
6.77531855e-04 1.77516809e+03
6.84281903e-04 1.79192943e+03
6.91099199e-04 1.80884387e+03
6.97984414e-04 1.82591268e+03
7.04938224e-04 1.84313714e+03
7.11961313e-04 1.86051851e+03
7.19054371e-04 1.87805810e+03
7.26218095e-04 1.89575720e+03
7.33453190e-04 1.91361711e+03
7.40760365e-04 1.93163915e+03
7.48140339e-04 1.94982465e+03
7.55593838e-04 1.96817493e+03
7.63121594e-04 1.98669133e+03
7.70724347e-04 2.00537520e+03
7.78402843e-04 2.02422790e+03
7.86157838e-04 2.04325078e+03
7.93990094e-04 2.06244523e+03
8.01900380e-04 2.08181263e+03
8.09889475e-04 2.10135436e+03
8.17958162e-04 2.12107183e+03
8.26107235e-04 2.14096643e+03
8.34337494e-04 2.16103960e+03
8.42649750e-04 2.18129274e+03
8.51044818e-04 2.20172728e+03
8.59523523e-04 2.22234464e+03
8.68086699e-04 2.24314623e+03
8.76735188e-04 2.26413349e+03
8.85469839e-04 2.28530785e+03
8.94291511e-04 2.30667076e+03
9.03201070e-04 2.32822366e+03
9.12199393e-04 2.34996801e+03
9.21287363e-04 2.37190528e+03
9.30465874e-04 2.39403695e+03
9.39735828e-04 2.41636449e+03
9.49098135e-04 2.43888939e+03
9.58553717e-04 2.46161315e+03
9.68103501e-04 2.48453727e+03
9.77748427e-04 2.50766326e+03
9.87489443e-04 2.53099263e+03
9.97327506e-04 2.55452691e+03
1.00726358e-03 2.57826763e+03
1.01729865e-03 2.60221633e+03
1.02743369e-03 2.62637455e+03
1.03766971e-03 2.65074385e+03
1.04800770e-03 2.67532579e+03
1.05844869e-03 2.70012192e+03
1.06899370e-03 2.72513382e+03
1.07964376e-03 2.75036299e+03
1.09039993e-03 2.77581095e+03
1.10126326e-03 2.80147922e+03
1.11223482e-03 2.82736931e+03
1.12331568e-03 2.85348277e+03
1.13450694e-03 2.87982110e+03
1.14580969e-03 2.90638586e+03
1.15722505e-03 2.93317858e+03
1.16875414e-03 2.96020079e+03
1.18039809e-03 2.98745405e+03
1.19215804e-03 3.01493989e+03
1.20403516e-03 3.04265988e+03
1.21603060e-03 3.07061556e+03
1.22814555e-03 3.09880849e+03
1.24038120e-03 3.12724023e+03
1.25273874e-03 3.15591234e+03
1.26521941e-03 3.18482639e+03
1.27782441e-03 3.21398394e+03
1.29055499e-03 3.24338656e+03
1.30341241e-03 3.27303582e+03
1.31639792e-03 3.30293329e+03
1.32951280e-03 3.33308055e+03
1.34275833e-03 3.36347917e+03
1.35613583e-03 3.39413067e+03
1.36964661e-03 3.42503659e+03
1.38329199e-03 3.45619844e+03
1.39707332e-03 3.48761774e+03
1.41099194e-03 3.51929601e+03
1.42504923e-03 3.55123477e+03
1.43924657e-03 3.58343552e+03
1.45358536e-03 3.61589979e+03
1.46806699e-03 3.64862909e+03
1.48269291e-03 3.68162492e+03
1.49746453e-03 3.71488879e+03
1.51238333e-03 3.74842220e+03
1.52745075e-03 3.78222665e+03
1.54266829e-03 3.81630363e+03
1.55803743e-03 3.85065464e+03
1.57355969e-03 3.88528117e+03
1.58923660e-03 3.92018471e+03
1.60506969e-03 3.95536672e+03
1.62106052e-03 3.99082869e+03
1.63721066e-03 4.02657208e+03
1.65352170e-03 4.06259837e+03
1.66999524e-03 4.09890900e+03
1.68663291e-03 4.13550544e+03
1.70343633e-03 4.17238904e+03
1.72040715e-03 4.20956112e+03
1.73754706e-03 4.24702299e+03
1.75485772e-03 4.28477594e+03
1.77234084e-03 4.32282125e+03
1.78999815e-03 4.36116020e+03
1.80783136e-03 4.39979403e+03
1.82584225e-03 4.43872399e+03
1.84403257e-03 4.47795132e+03
1.86240412e-03 4.51747723e+03
1.88095869e-03 4.55730292e+03
1.89969812e-03 4.59742958e+03
1.91862425e-03 4.63785839e+03
1.93773893e-03 4.67859050e+03
1.95704404e-03 4.71962705e+03
1.97654149e-03 4.76096918e+03
1.99623318e-03 4.80261798e+03
2.01612106e-03 4.84457456e+03
2.03620707e-03 4.88683998e+03
2.05649319e-03 4.92941531e+03
2.07698142e-03 4.97230159e+03
2.09767376e-03 5.01549982e+03
2.11857226e-03 5.05901102e+03
2.13967897e-03 5.10283610e+03
2.16099595e-03 5.14697590e+03
2.18252531e-03 5.19143125e+03
2.20426915e-03 5.23620293e+03
2.22622963e-03 5.28129170e+03
2.24840889e-03 5.32669831e+03
2.27080912e-03 5.37242345e+03
2.29343251e-03 5.41846782e+03
2.31628129e-03 5.46483207e+03
2.33935771e-03 5.51151682e+03
2.36266404e-03 5.55852268e+03
2.38620255e-03 5.60585019e+03
2.40997558e-03 5.65349991e+03
2.43398544e-03 5.70147234e+03
2.45823451e-03 5.74976794e+03
2.48272517e-03 5.79838717e+03
2.50745982e-03 5.84733042e+03
2.53244089e-03 5.89659807e+03
2.55767085e-03 5.94619047e+03
2.58315216e-03 5.99610792e+03
2.60888733e-03 6.04635069e+03
2.63487890e-03 6.09691901e+03
2.66112941e-03 6.14781309e+03
2.68764145e-03 6.19903303e+03
2.71441762e-03 6.25057882e+03
2.74146055e-03 6.30245039e+03
2.76877290e-03 6.35464763e+03
2.79635736e-03 6.40717038e+03
2.82421663e-03 6.46001843e+03
2.85235346e-03 6.51319154e+03
2.88077061e-03 6.56668940e+03
2.90947086e-03 6.62051167e+03
2.93845705e-03 6.67465796e+03
2.96773202e-03 6.72912783e+03
2.99729865e-03 6.78392078e+03
3.02715984e-03 6.83903628e+03
3.05731853e-03 6.89447372e+03
3.08777769e-03 6.95023248e+03
3.11854029e-03 7.00631184e+03
3.14960938e-03 7.06271106e+03
3.18098800e-03 7.11942934e+03
3.21267923e-03 7.17646581e+03
3.24468620e-03 7.23381956e+03
3.27701204e-03 7.29148962e+03
3.30965993e-03 7.34947497e+03
3.34263308e-03 7.40777451e+03
3.37593474e-03 7.46638707e+03
3.40956817e-03 7.52531124e+03
3.44353668e-03 7.58454552e+03
3.47784361e-03 7.64408834e+03
3.51249232e-03 7.70393806e+03
3.54748624e-03 7.76409296e+03
3.58282878e-03 7.82455128e+03
3.61852344e-03 7.88531116e+03
3.65457371e-03 7.94637067e+03
3.69098313e-03 8.00772783e+03
3.72775530e-03 8.06938057e+03
3.76489381e-03 8.13132674e+03
3.80240232e-03 8.19356412e+03
3.84028452e-03 8.25609044e+03
3.87854413e-03 8.31890331e+03
3.91718491e-03 8.38200029e+03
3.95621065e-03 8.44537887e+03
3.99562520e-03 8.50903644e+03
4.03543242e-03 8.57297032e+03
4.07563623e-03 8.63717775e+03
4.11624057e-03 8.70165589e+03
4.15724945e-03 8.76640182e+03
4.19866688e-03 8.83141254e+03
4.24049695e-03 8.89668494e+03
4.28274375e-03 8.96221557e+03
4.32541145e-03 9.02800082e+03
4.36850424e-03 9.09403696e+03
4.41202634e-03 9.16032017e+03
4.45598204e-03 9.22684652e+03
4.50037566e-03 9.29361201e+03
4.54521156e-03 9.36061253e+03
4.59049414e-03 9.42784386e+03
4.63622787e-03 9.49530170e+03
4.68241722e-03 9.56298163e+03
4.72906675e-03 9.63087915e+03
4.77618103e-03 9.69898965e+03
4.82376469e-03 9.76730841e+03
4.87182242e-03 9.83583062e+03
4.92035893e-03 9.90455137e+03
4.96937900e-03 9.97346564e+03
5.01888744e-03 1.00425683e+04
5.06888912e-03 1.01118541e+04
5.11938895e-03 1.01813178e+04
5.17039189e-03 1.02509539e+04
5.22190296e-03 1.03207569e+04
5.27392722e-03 1.03907211e+04
5.32646978e-03 1.04608407e+04
5.37953581e-03 1.05311096e+04
5.43313052e-03 1.06015210e+04
5.48725918e-03 1.06720682e+04
5.54192711e-03 1.07427443e+04
5.59713967e-03 1.08135421e+04
5.65290230e-03 1.08844545e+04
5.70922048e-03 1.09554743e+04
5.76609974e-03 1.10265940e+04
5.82354567e-03 1.10978060e+04
5.88156392e-03 1.11691027e+04
5.94016018e-03 1.12404762e+04
5.99934023e-03 1.13119187e+04
6.05910986e-03 1.13834221e+04
6.11947496e-03 1.14549782e+04
6.18044147e-03 1.15265788e+04
6.24201536e-03 1.15982153e+04
6.30420270e-03 1.16698793e+04
6.36700959e-03 1.17415620e+04
6.43044220e-03 1.18132548e+04
6.49450678e-03 1.18849485e+04
6.55920961e-03 1.19566343e+04
6.62455706e-03 1.20283030e+04
6.69055554e-03 1.20999452e+04
6.75721155e-03 1.21715511e+04
6.82453163e-03 1.22431103e+04
6.89252240e-03 1.23146119e+04
6.96119055e-03 1.23860450e+04
7.03054281e-03 1.24573988e+04
7.10058601e-03 1.25286618e+04
7.17132703e-03 1.25998230e+04
7.24277282e-03 1.26708708e+04
7.31493040e-03 1.27417936e+04
7.38780687e-03 1.28125797e+04
7.46140938e-03 1.28832173e+04
7.53574518e-03 1.29536944e+04
7.61082156e-03 1.30239988e+04
7.68664590e-03 1.30941184e+04
7.76322566e-03 1.31640407e+04
7.84056836e-03 1.32337533e+04
7.91868160e-03 1.33032435e+04
7.99757306e-03 1.33724987e+04
8.07725050e-03 1.34415058e+04
8.15772173e-03 1.35102520e+04
8.23899468e-03 1.35787242e+04
8.32107732e-03 1.36469092e+04
8.40397773e-03 1.37147936e+04
8.48770405e-03 1.37823637e+04
8.57226451e-03 1.38496039e+04
8.65766743e-03 1.39164987e+04
8.74392118e-03 1.39830322e+04
8.83103426e-03 1.40491884e+04
8.91901522e-03 1.41149512e+04
9.00787270e-03 1.41803044e+04
9.09761545e-03 1.42452316e+04
9.18825228e-03 1.43097164e+04
9.27979209e-03 1.43737421e+04
9.37224389e-03 1.44372921e+04
9.46561676e-03 1.45003496e+04
9.55991987e-03 1.45628976e+04
9.65516250e-03 1.46249193e+04
9.75135400e-03 1.46863974e+04
9.84850383e-03 1.47473148e+04
9.94662154e-03 1.48076544e+04
1.00457168e-02 1.48673987e+04
1.01457992e-02 1.49265304e+04
1.02468788e-02 1.49850320e+04
1.03489654e-02 1.50428860e+04
1.04520691e-02 1.51000750e+04
1.05561999e-02 1.51565811e+04
1.06613682e-02 1.52123866e+04
1.07675842e-02 1.52674714e+04
1.08748584e-02 1.53218149e+04
1.09832014e-02 1.53753964e+04
1.10926237e-02 1.54281951e+04
1.12031362e-02 1.54801901e+04
1.13147497e-02 1.55313607e+04
1.14274752e-02 1.55816859e+04
1.15413237e-02 1.56311448e+04
1.16563065e-02 1.56797167e+04
1.17724348e-02 1.57273804e+04
1.18897201e-02 1.57741153e+04
1.20081738e-02 1.58199003e+04
1.21278076e-02 1.58647148e+04
1.22486334e-02 1.59085378e+04
1.23706629e-02 1.59513487e+04
1.24939081e-02 1.59931268e+04
1.26183811e-02 1.60338514e+04
1.27440943e-02 1.60735022e+04
1.28710599e-02 1.61120586e+04
1.29992904e-02 1.61495003e+04
1.31287985e-02 1.61858071e+04
1.32595968e-02 1.62209591e+04
1.33916982e-02 1.62549360e+04
1.35251157e-02 1.62877156e+04
1.36598624e-02 1.63192743e+04
1.37959515e-02 1.63495886e+04
1.39333965e-02 1.63786351e+04
1.40722107e-02 1.64063908e+04
1.42124080e-02 1.64328326e+04
1.43540019e-02 1.64579377e+04
1.44970066e-02 1.64816838e+04
1.46414359e-02 1.65040483e+04
1.47873042e-02 1.65250094e+04
1.49346257e-02 1.65445452e+04
1.50834149e-02 1.65626343e+04
1.52336865e-02 1.65792556e+04
1.53854551e-02 1.65943880e+04
1.55387358e-02 1.66080112e+04
1.56935436e-02 1.66201050e+04
1.58498937e-02 1.66306496e+04
1.60078015e-02 1.66396257e+04
1.61672824e-02 1.66470141e+04
1.63283522e-02 1.66527964e+04
1.64910267e-02 1.66569544e+04
1.66553219e-02 1.66594705e+04
1.68212539e-02 1.66603274e+04
1.69888390e-02 1.66595071e+04
1.71580938e-02 1.66569909e+04
1.73290347e-02 1.66527603e+04
1.75016787e-02 1.66467974e+04
1.76760427e-02 1.66390850e+04
1.78521439e-02 1.66296063e+04
1.80299994e-02 1.66183453e+04
1.82096270e-02 1.66052863e+04
1.83910440e-02 1.65904146e+04
1.85742685e-02 1.65737160e+04
1.87593184e-02 1.65551769e+04
1.89462119e-02 1.65347845e+04
1.91349673e-02 1.65125267e+04
1.93256033e-02 1.64883921e+04
1.95181385e-02 1.64623701e+04
1.97125919e-02 1.64344508e+04
1.99089826e-02 1.64046251e+04
2.01073298e-02 1.63728847e+04
2.03076532e-02 1.63392221e+04
2.05099722e-02 1.63036306e+04
2.07143070e-02 1.62661045e+04
2.09206774e-02 1.62266388e+04
2.11291039e-02 1.61852293e+04
2.13396069e-02 1.61418752e+04
2.15522070e-02 1.60965809e+04
2.17669252e-02 1.60493528e+04
2.19837826e-02 1.60001977e+04
2.22028004e-02 1.59491235e+04
2.24240003e-02 1.58961386e+04
2.26474039e-02 1.58412527e+04
2.28730333e-02 1.57844758e+04
2.31009105e-02 1.57258191e+04
2.33310579e-02 1.56652945e+04
2.35634983e-02 1.56029147e+04
2.37982544e-02 1.55386932e+04
2.40353493e-02 1.54726444e+04
2.42748063e-02 1.54047835e+04
2.45166490e-02 1.53351263e+04
2.47609010e-02 1.52636898e+04
2.50075865e-02 1.51904913e+04
2.52567296e-02 1.51155494e+04
2.55083549e-02 1.50388831e+04
2.57624870e-02 1.49605124e+04
2.60191510e-02 1.48804579e+04
2.62783720e-02 1.47987411e+04
2.65401756e-02 1.47153842e+04
2.68045874e-02 1.46304153e+04
2.70716335e-02 1.45438854e+04
2.73413401e-02 1.44558513e+04
2.76137337e-02 1.43663696e+04
2.78888411e-02 1.42754970e+04
2.81666893e-02 1.41832898e+04
2.84473056e-02 1.40898040e+04
2.87307176e-02 1.39950954e+04
2.90169532e-02 1.38992193e+04
2.93060404e-02 1.38022309e+04
2.95980078e-02 1.37041847e+04
2.98928839e-02 1.36051348e+04
3.01906978e-02 1.35051350e+04
3.04914787e-02 1.34042383e+04
3.07952562e-02 1.33024974e+04
3.11020601e-02 1.31999643e+04
3.14119207e-02 1.30966904e+04
3.17248683e-02 1.29927265e+04
3.20409337e-02 1.28881226e+04
3.23601479e-02 1.27829283e+04
3.26825424e-02 1.26771921e+04
3.30081488e-02 1.25709622e+04
3.33369991e-02 1.24642856e+04
3.36691257e-02 1.23572137e+04
3.40045612e-02 1.22498304e+04
3.43433385e-02 1.21422323e+04
3.46854909e-02 1.20345134e+04
3.50310521e-02 1.19267651e+04
3.53800560e-02 1.18190757e+04
3.57325369e-02 1.17115312e+04
3.60885295e-02 1.16042145e+04
3.64480688e-02 1.14972062e+04
3.68111900e-02 1.13905839e+04
3.71779289e-02 1.12844225e+04
3.75483215e-02 1.11787943e+04
3.79224042e-02 1.10737692e+04
3.83002138e-02 1.09694141e+04
3.86817874e-02 1.08657936e+04
3.90671625e-02 1.07629698e+04
3.94563770e-02 1.06610022e+04
3.98494691e-02 1.05599480e+04
4.02464775e-02 1.04598620e+04
4.06474411e-02 1.03607967e+04
4.10523994e-02 1.02628022e+04
4.14613922e-02 1.01659267e+04
4.18744597e-02 1.00702162e+04
4.22916425e-02 9.97571566e+03
4.27129815e-02 9.88246806e+03
4.31385181e-02 9.79051449e+03
4.35682943e-02 9.69989415e+03
4.40023522e-02 9.61064437e+03
4.44407345e-02 9.52280076e+03
4.48834843e-02 9.43639722e+03
4.53306451e-02 9.35146608e+03
4.57822608e-02 9.26803811e+03
4.62383757e-02 9.18614265e+03
4.66990349e-02 9.10580765e+03
4.71642834e-02 9.02705980e+03
4.76341671e-02 8.94992453e+03
4.81087321e-02 8.87442616e+03
4.85880250e-02 8.80058451e+03
4.90720930e-02 8.72838273e+03
4.95609836e-02 8.65778318e+03
5.00547449e-02 8.58874902e+03
5.05534254e-02 8.52124439e+03
5.10570741e-02 8.45523445e+03
5.15657405e-02 8.39068529e+03
5.20794746e-02 8.32756395e+03
5.25983268e-02 8.26583833e+03
5.31223482e-02 8.20547724e+03
5.36515903e-02 8.14644314e+03
5.41861051e-02 8.08866061e+03
5.47259451e-02 8.03204319e+03
5.52711634e-02 7.97650672e+03
5.58218135e-02 7.92196930e+03
5.63779495e-02 7.86835116e+03
5.69396262e-02 7.81557459e+03
5.75068987e-02 7.76356306e+03
5.80798228e-02 7.71222004e+03
5.86584547e-02 7.66142791e+03
5.92428514e-02 7.61107089e+03
5.98330702e-02 7.56103614e+03
6.04291692e-02 7.51121372e+03
6.10312070e-02 7.46149645e+03
6.16392427e-02 7.41176978e+03
6.22533361e-02 7.36190355e+03
6.28735475e-02 7.31176924e+03
6.34999379e-02 7.26124201e+03
6.41325688e-02 7.21020082e+03
6.47715025e-02 7.15852747e+03
6.54168016e-02 7.10610068e+03
6.60685297e-02 7.05280035e+03
6.67267507e-02 6.99851095e+03
6.73915294e-02 6.94312164e+03
6.80629311e-02 6.88652713e+03
6.87410218e-02 6.82863142e+03
6.94258680e-02 6.76934529e+03
7.01175372e-02 6.70858482e+03
7.08160973e-02 6.64627161e+03
7.15216170e-02 6.58234052e+03
7.22341655e-02 6.51674751e+03
